X,Y,velocity
-0.4936894178390503,0.2901630997657776,5.0
-0.9679273962974548,0.19381307065486908,5.0
-1.3612290620803833,0.1141667291522026,5.0
-1.8364778757095337,0.01728185825049877,5.0
-2.2375648021698,-0.06401178240776062,5.0
-2.7001500129699707,-0.15845271944999695,8.499999999999982
-3.1163902282714844,-0.2430315762758255,8.499999999999982
-3.562936544418335,-0.3342169225215912,6.215044449980413
-3.994764566421509,-0.42222970724105835,6.3673742208877515
-4.4273295402526855,-0.5104451179504395,6.3673742208877515
-4.870497226715088,-0.6010727882385254,6.51970399179509
-5.294780731201172,-0.6874777674674988,6.672033762702429
-5.742741584777832,-0.7792835235595703,6.672033762702429
-6.165553092956543,-0.865358829498291,6.824363533609768
-6.612040996551514,-0.9569051265716553,6.976693304517107
-7.038900375366211,-1.0439069271087646,6.976693304517107
-7.479547023773193,-1.1341625452041626,7.1290230754244455
-7.913092136383057,-1.222766637802124,7.281352846331784
-8.346900939941406,-1.3114248514175415,7.281352846331784
-8.78653621673584,-1.4015170335769653,7.433682617239123
-9.215487480163574,-1.4890377521514893,7.586012388146462
-9.658447265625,-1.5799751281738281,7.738342159053801
-10.086074829101562,-1.6671594381332397,7.738342159053801
-10.528427124023438,-1.7579790353775024,7.890671929961139
-10.95823860168457,-1.845689058303833,7.890671929961139
-11.397028923034668,-1.935642957687378,8.043001700868478
-11.831084251403809,-2.0244128704071045,8.195331471775818
-12.265446662902832,-2.113234519958496,8.347661242683158
-12.703874588012695,-2.2030904293060303,8.347661242683158
-13.134719848632812,-2.2909798622131348,8.499991013590497
-13.57547378540039,-2.3814661502838135,8.652320784497837
-14.005181312561035,-2.469041347503662,8.652320784497837
-14.445599555969238,-2.559460163116455,8.804650555405177
-14.876806259155273,-2.647423028945923,8.956980326312516
-15.314854621887207,-2.737220048904419,8.956980326312516
-15.749314308166504,-2.8260464668273926,9.109310097219856
-16.18390464782715,-2.9149160385131836,9.261639868127196
-16.621553421020508,-3.0046279430389404,9.261639868127196
-17.053369522094727,-3.0927066802978516,9.413969639034535
-17.492843627929688,-3.182912826538086,9.566299409941875
-17.923768997192383,-3.2706942558288574,9.566299409941875
-18.36329460144043,-3.3608710765838623,9.718629180849215
-18.795438766479492,-3.4489381313323975,9.870958951756554
-19.232948303222656,-3.538520574569702,9.870958951756554
-19.667537689208984,-3.627274751663208,10.023288722663894
-20.102224349975586,-3.7160418033599854,10.175618493571234
-20.539352416992188,-3.8055419921875,10.175618493571234
-20.971866607666016,-3.8936824798583984,10.327948264478573
-21.410795211791992,-3.9837069511413574,10.480278035385913
-21.84256935119629,-4.071590900421143,10.480278035385913
-22.281309127807617,-4.161584377288818,10.632607806293253
-22.713926315307617,-4.249717712402344,10.784937577200592
-23.151004791259766,-4.339174270629883,10.937267348107932
-23.585641860961914,-4.427852153778076,10.937267348107932
-24.020584106445312,-4.5165910720825195,11.089597119015272
-24.457643508911133,-4.605958461761475,11.241926889922611
-24.89067840576172,-4.694057941436768,11.241926889922611
-25.329021453857422,-4.783856391906738,11.394256660829951
-25.761272430419922,-4.871744155883789,11.241926889922611
-26.19942283630371,-4.961575508117676,11.241926889922611
-26.632343292236328,-5.049778938293457,11.089597119015272
-27.069318771362305,-5.139352321624756,10.937267348107932
-27.504154205322266,-5.228256702423096,10.937267348107932
-27.9390869140625,-5.317185401916504,10.784937577200592
-28.37578582763672,-5.406691074371338,10.632607806293253
-28.808979034423828,-5.494951248168945,10.632607806293253
-29.246856689453125,-5.584680080413818,10.480278035385913
-29.67943000793457,-5.672461986541748,10.327948264478573
-30.11726188659668,-5.761876583099365,10.327948264478573
-30.550521850585938,-5.84957218170166,10.175618493571234
-30.987285614013672,-5.938344955444336,10.023288722663894
-31.422264099121094,-6.026389122009277,10.023288722663894
-31.857479095458984,-6.114417552947998,9.870958951756554
-32.29452133178711,-6.202991962432861,9.718629180849215
-32.72770309448242,-6.290292739868164,9.566299409941875
-33.16444778442383,-6.378951549530029,9.566299409941875
-33.59684371948242,-6.46599817276001,9.413969639034535
-34.03427505493164,-6.554867267608643,9.413969639034535
-34.468048095703125,-6.642364978790283,9.261639868127196
-34.90553665161133,-6.731231212615967,9.109310097219856
-35.341888427734375,-6.81966495513916,8.956980326312516
-35.77620315551758,-6.907862186431885,8.956980326312516
-36.211124420166016,-6.9968156814575195,8.804650555405177
-36.64412307739258,-7.085597991943359,8.652320784497837
-37.08091735839844,-7.176899433135986,8.652320784497837
-37.514251708984375,-7.268138408660889,8.499991013590497
-37.95161056518555,-7.3627543449401855,8.499975244323219
-38.3857421875,-7.4581298828125,8.499975244323219
-38.82221221923828,-7.556890964508057,8.49992603115535
-39.256996154785156,-7.657093048095703,8.499819683082166
-39.691219329833984,-7.758758544921875,8.499819683082166
-40.12541198730469,-7.861717224121094,8.499506622768052
-40.556339263916016,-7.963991165161133,8.498786659813405
-40.98755645751953,-8.066995620727539,8.498786659813405
-41.41716003417969,-8.168403625488281,8.496543606983513
-41.85702896118164,-8.271866798400879,8.489666374061825
-42.295448303222656,-8.372208595275879,8.47480970429714
-42.73278045654297,-8.469664573669434,8.47480970429714
-43.1667366027832,-8.56185531616211,8.431067782239118
-43.59849166870117,-8.648340225219727,8.331079378914794
-44.02791976928711,-8.72833251953125,8.331079378914794
-44.46249771118164,-8.801042556762695,8.074100056184115
-44.90739822387695,-8.86703872680664,7.845817416711628
-45.34819412231445,-8.920016288757324,7.102411821798139
-45.791507720947266,-8.961518287658691,6.436711821798136
-46.231178283691406,-8.986649513244629,6.436711821798136
-46.673397064208984,-8.996405601501465,6.147092021884701
-47.115028381347656,-8.987333297729492,6.141256190052298
-47.55784225463867,-8.958674430847168,6.137156454264554
-48.00112533569336,-8.910238265991211,6.133326209320575
-48.4398193359375,-8.840030670166016,6.1300717492583265
-48.877254486083984,-8.75007152557373,6.127407631873815
-49.305145263671875,-8.636911392211914,6.125513646789396
-49.72937774658203,-8.503039360046387,6.123116550781593
-50.14534378051758,-8.343379020690918,6.122718650860567
-50.555545806884766,-8.16024398803711,6.123722600948326
-50.95071792602539,-7.953953266143799,6.123756058369884
-51.3311767578125,-7.725409507751465,6.123048478847008
-51.696346282958984,-7.475403785705566,6.121535477439781
-52.040889739990234,-7.2035603523254395,6.119534858068443
-52.371009826660156,-6.909821033477783,6.116769959931308
-52.67914962768555,-6.59199333190918,6.115294053743636
-52.967918395996094,-6.256778717041016,6.115543985092271
-53.23212814331055,-5.900993347167969,6.117101287572844
-53.475223541259766,-5.528940200805664,6.116438503368044
-53.69384765625,-5.139518737792969,6.115020342974241
-53.8869514465332,-4.7382707595825195,6.112591170922258
-54.05485916137695,-4.328941822052002,6.1112651978017
-54.19709396362305,-3.907651901245117,6.110883144516662
-54.31712341308594,-3.4792232513427734,6.1110860439858525
-54.409881591796875,-3.0421247482299805,6.11061027134487
-54.47965621948242,-2.603625535964966,6.109157691514037
-54.521690368652344,-2.1599316596984863,6.107277699431775
-54.53912353515625,-1.7129793167114258,6.105061298383592
-54.52892303466797,-1.2671760320663452,6.102559956038035
-54.492210388183594,-0.8242983818054199,6.102258307058282
-54.42964172363281,-0.38597601652145386,6.101260740434361
-54.339576721191406,0.04765604808926582,6.099974081294869
-54.22444534301758,0.47465673089027405,6.098237210299883
-54.080204010009766,0.8982566595077515,6.095780199022567
-53.910030364990234,1.311598539352417,6.093077607990593
-53.71237564086914,1.7115981578826904,6.091399094700041
-53.48853302001953,2.0947482585906982,6.0924460830053775
-53.238136291503906,2.4585304260253906,6.099056742716582
-52.96180725097656,2.7996158599853516,6.108157061532678
-52.64537811279297,3.1281392574310303,6.119724092973848
-52.29823303222656,3.427389621734619,6.137420115594227
-51.9313850402832,3.6789064407348633,6.156654747041701
-51.54004669189453,3.885906457901001,6.178015263721194
-51.13422393798828,4.030063629150391,6.225710622134036
-50.71055221557617,4.113619327545166,6.262023505818321
-50.275962829589844,4.124030113220215,6.306651630914168
-49.82892608642578,4.345145225524902,6.355660695127714
-49.38835144042969,4.253476619720459,6.4041208623879795
-48.95716094970703,4.119462966918945,6.456898591640451
-48.54051208496094,3.9531443119049072,6.51530920010061
-48.133506774902344,3.7491135597229004,6.577380052603164
-47.741416931152344,3.5135674476623535,6.6558556247915615
-47.386924743652344,3.2371273040771484,6.751497064486173
-47.0780029296875,2.924468755722046,6.867878541011389
-46.8270263671875,2.5591371059417725,6.993840690975343
-46.643463134765625,2.150608539581299,7.121701344598102
-46.53501510620117,1.7438883781433105,7.284483678486099
-46.48942565917969,1.315291404724121,7.284483678486099
-46.502113342285156,0.8697912693023682,7.454903540765228
-46.57251739501953,0.4241270124912262,7.6367906894009225
-46.67558288574219,-0.02388259768486023,7.805556705407844
-46.793609619140625,-0.4662301540374756,7.250972310264423
-46.89856719970703,-0.9124169945716858,6.58527231026442
-46.97499465942383,-1.3614691495895386,5.919572310264417
-47.01673126220703,-1.7971889972686768,5.90746166337549
-47.02216339111328,-2.2222037315368652,5.899870628220477
-46.98862075805664,-2.638292074203491,5.897012978867471
-46.91596603393555,-3.037335157394409,5.897569129585708
-46.782325744628906,-3.441390037536621,5.902562597633328
-46.57493591308594,-3.8214707374572754,5.914794383024828
-46.312347412109375,-4.13711404800415,5.936936141825644
-45.961875915527344,-4.392482757568359,6.000766141518985
-45.55217742919922,-4.572342395782471,6.045076545571035
-45.138397216796875,-4.682102203369141,6.094024362836316
-44.714447021484375,-4.739453315734863,6.1412390532564425
-44.27928924560547,-4.765590667724609,6.185159075509588
-43.840110778808594,-4.768633842468262,6.224511868565629
-43.400001525878906,-4.7289934158325195,6.25942640946855
-42.954856872558594,-4.62632417678833,6.29973788040011
-42.534461975097656,-4.457655429840088,6.34679512684879
-42.161949157714844,-4.231513023376465,6.399720517584339
-41.82717514038086,-3.947408437728882,6.4570211369377075
-41.52717208862305,-3.618274211883545,6.520207127617294
-41.258888244628906,-3.2546870708465576,6.586306330570367
-41.01976776123047,-2.8675851821899414,6.723486382461096
-40.80823516845703,-2.4656407833099365,6.794536197571783
-40.62455368041992,-2.0483593940734863,6.864196843307222
-40.46879577636719,-1.6259429454803467,6.864196843307222
-40.34029769897461,-1.1962138414382935,6.930900952590017
-40.235740661621094,-0.7581949234008789,7.004255722490974
-40.15711212158203,-0.31441834568977356,7.082298943765025
-40.103515625,0.13221585750579834,7.160928344896039
-40.07563781738281,0.579469621181488,7.262275989583649
-40.073974609375,1.024947166442871,7.379874248434012
-40.09840774536133,1.468494176864624,7.520164314697198
-40.15330505371094,1.9158788919448853,7.6761370203552755
-40.23561477661133,2.3580899238586426,7.828629632716585
-40.34495544433594,2.790731430053711,8.081217729023745
-40.477386474609375,3.214747905731201,7.55205702971449
-40.63212585449219,3.6309094429016113,7.55205702971449
-40.80522537231445,4.038823127746582,7.691603366501023
-40.995262145996094,4.438605785369873,7.844472693952303
-41.21286392211914,4.832928657531738,8.018153994671826
-41.46135711669922,5.20844841003418,8.2126720994654
-41.73406219482422,5.5651373863220215,8.2126720994654
-42.01752471923828,5.913994789123535,8.407585930384755
-42.30620574951172,6.257646083831787,8.499999999938114
-42.598243713378906,6.598255634307861,8.499999999912964
-42.89348602294922,6.93649959564209,8.499999999912964
-43.19136047363281,7.274806976318359,6.181998751228948
-43.49031066894531,7.612412929534912,6.5131403867699085
-43.78969955444336,7.949604034423828,6.844282022310869
-44.08844757080078,8.287138938903809,7.17542365785183
-44.3866081237793,8.625028610229492,7.17542365785183
-44.68251037597656,8.964067459106445,7.506565293392791
-44.97727584838867,9.304534912109375,7.837706928933752
-45.270198822021484,9.647506713867188,8.168848564474713
-45.56145477294922,9.991438865661621,8.499990200015674
-45.85087585449219,10.336681365966797,8.499990200015674
-46.13893127441406,10.682884216308594,8.831131835556635
-46.42597961425781,11.029827117919922,9.162273471097595
-46.71194076538086,11.377767562866211,9.493415106638556
-46.99748992919922,11.7257080078125,9.493415106638556
-47.281986236572266,12.074214935302734,9.824556742179517
-47.566810607910156,12.422897338867188,10.155698377720478
-47.851097106933594,12.772228240966797,10.486840013261439
-48.13579559326172,13.121642112731934,10.8179816488024
-48.420528411865234,13.471482276916504,10.8179816488024
-48.7056884765625,13.82154655456543,11.14912328434336
-48.990257263183594,14.17013931274414,11.480264919884322
-49.27461242675781,14.518440246582031,11.811406555425283
-49.56016540527344,14.866868019104004,11.811406555425283
-49.84552764892578,15.21534252166748,11.480264919884322
-50.13214111328125,15.563766479492188,11.14912328434336
-50.418739318847656,15.912302017211914,10.8179816488024
-50.70623016357422,16.260562896728516,10.486840013261439
-50.99317932128906,16.607765197753906,10.486840013261439
-51.280548095703125,16.954713821411133,10.155698377720478
-51.56855010986328,17.301528930664062,9.824556742179517
-51.85637664794922,17.648075103759766,9.493415106638556
-52.1451416015625,17.99448585510254,9.493415106638556
-52.433197021484375,18.340473175048828,9.162273471097595
-52.722373962402344,18.68655014038086,8.831131835556635
-53.011375427246094,19.03298568725586,8.499990200015674
-53.30082702636719,19.37929344177246,8.499990200015674
-53.58967971801758,19.725400924682617,8.499976045495448
-53.878173828125,20.071374893188477,8.49994993044033
-54.166351318359375,20.41733169555664,8.499880388310446
-54.45326232910156,20.763063430786133,8.499715347498288
-54.74092102050781,21.11005401611328,8.499715347498288
-55.028114318847656,21.458667755126953,8.4993081723444
-55.315032958984375,21.80764389038086,8.498312687337274
-55.600006103515625,22.156869888305664,8.496484991962737
-55.88407897949219,22.506450653076172,8.491603555807764
-56.166229248046875,22.85639190673828,8.491603555807764
-56.4466552734375,23.20675277709961,8.4800140111289
-56.72705078125,23.560009002685547,8.451078393928366
-57.005615234375,23.915870666503906,8.38167727499339
-57.28016662597656,24.27389907836914,8.420747246928475
-57.54743957519531,24.63582992553711,8.420747246928475
-57.80644989013672,25.00288200378418,8.499999997259415
-58.053810119628906,25.37651824951172,8.499999996145677
-58.28927230834961,25.757648468017578,7.202881385466082
-58.51231384277344,26.148588180541992,7.202881385466082
-58.72119140625,26.54697036743164,7.527159934933774
-58.91542434692383,26.952131271362305,7.851438484401466
-59.0968017578125,27.363636016845703,8.175717033869159
-59.26917266845703,27.778850555419922,8.499995583336851
-59.43560028076172,28.197607040405273,8.499995583336851
-59.599609375,28.615875244140625,8.824274132804543
-59.762657165527344,29.033477783203125,9.148552682272236
-59.92618179321289,29.451457977294922,9.472831231739928
-60.08938980102539,29.870223999023438,9.472831231739928
-60.25237274169922,30.289962768554688,9.79710978120762
-60.415191650390625,30.710786819458008,10.121388330675313
-60.57744598388672,31.132225036621094,9.79710978120762
-60.73847579956055,31.55019187927246,9.79710978120762
-60.89879608154297,31.967670440673828,9.472831231739928
-61.06064987182617,32.386600494384766,9.148552682272236
-61.22291946411133,32.80640411376953,8.824274132804543
-61.38677215576172,33.22705078125,8.499995583336851
-61.551841735839844,33.64862060546875,8.499995583336851
-61.71776580810547,34.069175720214844,8.499989481540378
-61.88314437866211,34.485504150390625,8.49997443938302
-62.049171447753906,34.90187072753906,8.499939186997164
-62.21673583984375,35.31927490234375,8.499939186997164
-62.38422393798828,35.73712158203125,8.499851687668606
-62.552433013916016,36.15550231933594,8.49969756332586
-62.720115661621094,36.574729919433594,8.499280914722869
-62.887229919433594,36.993595123291016,8.498295920950772
-63.05177307128906,37.41009521484375,8.498295920950772
-63.21490478515625,37.82784652709961,8.495947435601538
-63.37599182128906,38.24713897705078,8.490369797088983
-63.533912658691406,38.66820526123047,8.479938313946615
-63.68883514404297,39.09161376953125,8.452077590188077
-63.83930969238281,39.518131256103516,8.452077590188077
-63.985145568847656,39.94645690917969,8.386032475006223
-64.12433624267578,40.374855041503906,8.231245794192278
-64.25843048095703,40.80575942993164,8.245221971587236
-64.386474609375,41.23871612548828,7.969903516087175
-64.5081787109375,41.67327117919922,7.36675824791733
-64.62277221679688,42.10879135131836,7.36675824791733
-64.72911071777344,42.544639587402344,6.701058247917327
-64.82736206054688,42.98414611816406,6.222414221505993
-64.91659545898438,43.44523620605469,6.222534086408191
-64.99250793457031,43.91796875,6.226590855286497
-65.05058288574219,44.37147903442383,6.240086320172363
-65.08819580078125,44.812782287597656,6.261186758756466
-65.06413269042969,45.230918884277344,6.292556697643269
-64.91543579101562,45.618896484375,6.3333923172697455
-64.6795654296875,45.96678161621094,6.387041702918502
-64.37777709960938,46.257484436035156,6.4542214485068685
-64.02407836914062,46.503265380859375,6.540038360386383
-63.60832214355469,46.692359924316406,6.643161866738559
-63.1557502746582,46.788002014160156,6.758638758866847
-62.7122802734375,46.79212951660156,6.8773131269453245
-62.28662109375,46.730159759521484,6.99147178148014
-61.86527633666992,46.618953704833984,7.1216126515415406
-61.45130157470703,46.46726989746094,7.258558781653733
-61.04389953613281,46.28403091430664,7.408089943693154
-60.639705657958984,46.07817840576172,7.565763987370601
-60.2476921081543,45.85727310180664,7.719703544657725
-59.871002197265625,45.62294387817383,7.9013917909105365
-59.5057373046875,45.37168884277344,7.9013917909105365
-59.148345947265625,45.10192108154297,7.96115082870392
-58.80186080932617,44.81331253051758,7.737060200786379
-58.466331481933594,44.507659912109375,7.8991641351934465
-58.14346694946289,44.18677520751953,8.060691048722232
-57.834598541259766,43.85259246826172,8.264966740837865
-57.540592193603516,43.50798797607422,8.264966740837865
-57.260475158691406,43.15449523925781,8.499999999499437
-56.989322662353516,42.79408645629883,8.499999999296017
-56.726158142089844,42.42964172363281,7.1108599466129885
-56.46633529663086,42.062950134277344,7.342382565658246
-56.21156311035156,41.69512939453125,7.342382565658246
-55.9619026184082,41.325042724609375,7.573905184703504
-55.716575622558594,40.94702911376953,7.805427803748762
-55.478233337402344,40.56138610839844,8.03695042279402
-55.24889373779297,40.171875,8.03695042279402
-55.02747344970703,39.7797966003418,8.268473041839277
-54.81011962890625,39.38660430908203,8.499995660884535
-54.59584045410156,38.99347686767578,8.731518279929793
-54.381309509277344,38.60108184814453,8.731518279929793
-54.165916442871094,38.20656967163086,8.96304089897505
-53.948585510253906,37.80998992919922,9.194563518020308
-53.73133850097656,37.41447448730469,9.426086137065566
-53.51408767700195,37.01982879638672,9.657608756110823
-53.29608154296875,36.625911712646484,9.657608756110823
-53.07838439941406,36.23286437988281,9.889131375156081
-52.859291076660156,35.84021759033203,10.120653994201339
-52.63975524902344,35.447059631347656,9.889131375156081
