X,Y,velocity
0.22570329904556274,-0.5664528608322144,5.0
0.6403626203536987,-0.5226614475250244,5.0
0.93198162317276,-0.4900077283382416,5.0
1.302658200263977,-0.4471544027328491,5.0
1.6495469808578491,-0.40532076358795166,5.0
1.9713644981384277,-0.36500948667526245,5.0
2.3383333683013916,-0.3180665969848633,5.0
2.661863088607788,-0.27521032094955444,5.0
3.004075288772583,-0.2290528118610382,5.0
3.357307195663452,-0.18050286173820496,5.0
3.688188314437866,-0.13400442898273468,5.0
4.046388149261475,-0.08312153071165085,5.097208920980733
4.38543701171875,-0.03411125764250755,5.762908920980736
4.724168300628662,0.015456457622349262,6.333508920980738
5.076120853424072,0.06746916472911835,6.333508920980738
5.406400203704834,0.11684343218803406,6.952923378568529
5.752087593078613,0.16889457404613495,7.269033598670541
6.09181022644043,0.22040899097919464,7.389594420739075
6.42616081237793,0.2713557779788971,7.389594420739075
6.779181957244873,0.32545605301856995,7.453540813841069
7.11691427230835,0.37732380628585815,7.480395841938659
7.4612932205200195,0.4304564893245697,7.480395841938659
7.808112144470215,0.4842052161693573,7.490629014839625
8.142539024353027,0.5360102653503418,7.496158085830859
8.490052223205566,0.5902237892150879,7.496158085830859
8.827716827392578,0.6428582668304443,7.498419804693184
9.164809226989746,0.695497989654541,7.499339196779029
9.511547088623047,0.7499639987945557,7.499339196779029
9.848938941955566,0.8026755452156067,7.499682800595123
10.195595741271973,0.857183039188385,7.499869385463325
10.538802146911621,0.9110645651817322,7.499869385463325
10.876930236816406,0.9639027714729309,7.4999451143037055
11.223814010620117,1.0184751749038696,7.499976442982234
11.561188697814941,1.0709946155548096,7.499976442982234
11.902714729309082,1.1242731809616089,7.499990051630605
12.245622634887695,1.1777260303497314,7.499995217717411
12.582592964172363,1.2295587062835693,7.499995217717411
12.929729461669922,1.2833170890808105,7.499998048989224
13.27059268951416,1.3353427648544312,7.4999991543222135
13.61151123046875,1.386965274810791,7.799406201872982
13.957672119140625,1.4393768310546875,7.799406201872982
14.295620918273926,1.4892477989196777,8.098813249423749
14.640144348144531,1.540120005607605,8.398220296974516
14.982553482055664,1.5897737741470337,8.398220296974516
15.321615219116211,1.6377636194229126,8.697627344525284
15.667412757873535,1.6867196559906006,8.997034392076051
16.006345748901367,1.7329256534576416,8.997034392076051
16.34897232055664,1.7791928052902222,9.296441439626818
16.693378448486328,1.8250073194503784,8.997034392076051
17.03269386291504,1.8683034181594849,8.997034392076051
17.37917137145996,1.9126579761505127,8.697627344525284
17.7218017578125,1.9547359943389893,8.398220296974516
18.06537628173828,1.9959317445755005,8.398220296974516
18.413341522216797,2.0374372005462646,8.098813249423749
18.754060745239258,2.075766086578369,7.799406201872981
19.0987548828125,2.1147537231445312,7.499999154322213
19.442852020263672,2.1525418758392334,7.499999154322213
19.78509521484375,2.1888539791107178,7.2005921067714445
20.13252067565918,2.226618528366089,6.901185059220676
20.47516632080078,2.262098789215088,6.901185059220676
20.82033348083496,2.2984070777893066,6.601778011669908
21.166467666625977,2.3351330757141113,6.30237096411914
21.507368087768555,2.370033025741577,6.30237096411914
21.850231170654297,2.4072318077087402,6.002963916568372
22.188037872314453,2.444153070449829,7.499999999114376
22.526233673095703,2.4839401245117188,7.499999999114376
22.86777687072754,2.5293784141540527,7.499999999338845
23.205583572387695,2.5780601501464844,7.361260339574178
23.54805564880371,2.6356263160705566,7.361260339574178
23.890676498413086,2.7008512020111084,7.172785970787144
24.233278274536133,2.7746784687042236,7.000331791022347
24.58111572265625,2.8617818355560303,6.862148611389708
24.926586151123047,2.958477735519409,6.7315066708647375
25.27620506286621,3.087568759918213,6.7315066708647375
25.62230682373047,3.1937594413757324,6.801031342608356
25.961484909057617,3.3071041107177734,6.817279945624198
26.294517517089844,3.43039608001709,6.66958201920406
26.61631965637207,3.560269355773926,6.66958201920406
26.92586326599121,3.697852849960327,6.515291950473162
27.216190338134766,3.842834711074829,6.374864200538765
27.499492645263672,4.007968902587891,6.234053399691686
27.794828414916992,4.223194122314453,6.095466538039137
28.070579528808594,4.479254722595215,5.97981755068194
28.300737380981445,4.755037784576416,5.869049841726116
28.489471435546875,5.04724645614624,5.767543678443464
28.634260177612305,5.343502521514893,5.678873916873128
28.74057960510254,5.643646717071533,5.611603396198383
28.81011962890625,5.944698333740234,5.611603396198383
28.842885971069336,6.241948127746582,5.555712915536016
28.844945907592773,6.553613185882568,5.517617497962154
28.815771102905273,6.874731540679932,5.488773735969237
28.759693145751953,7.217689514160156,5.476710232240789
28.67692756652832,7.608156681060791,5.479932073472624
28.582035064697266,7.98677921295166,5.486443395733953
28.499839782714844,8.30805778503418,5.8690563744598325
28.418996810913086,8.614232063293457,6.534756374459835
28.332603454589844,8.93344783782959,7.083530639339001
28.246784210205078,9.26335620880127,7.083530639339001
28.155685424804688,9.602709770202637,7.300821652082811
28.065736770629883,9.94942855834961,7.417992997312469
27.976802825927734,10.302148818969727,7.417992997312469
27.886409759521484,10.658524513244629,7.4655432530658805
27.80187225341797,11.018326759338379,7.483102593100732
27.718379974365234,11.37820053100586,7.271577092380253
27.63932228088379,11.738184928894043,7.271577092380253
27.566917419433594,12.100431442260742,7.095193094495335
27.496313095092773,12.4590482711792,6.949223756868788
27.43338394165039,12.81605339050293,6.8115043073645865
27.37403106689453,13.169057846069336,6.68870356814035
27.317584991455078,13.51638412475586,6.8721619101928475
27.267606735229492,13.863959312438965,6.8721619101928475
27.218379974365234,14.201541900634766,7.032252498948499
27.17363739013672,14.537483215332031,6.976004229864015
27.131927490234375,14.871744155883789,6.976004229864015
27.091285705566406,15.185273170471191,7.225440743059904
27.052995681762695,15.527064323425293,7.387213506688085
27.009597778320312,15.914822578430176,7.4536100441889745
26.96786117553711,16.28631591796875,7.4536100441889745
26.92813491821289,16.640701293945312,7.477265589936095
26.88239097595215,16.99344253540039,7.490674209414749
26.83622169494629,17.329694747924805,7.490674209414749
26.783775329589844,17.65743064880371,7.268534130235243
26.723777770996094,17.973337173461914,7.07968687123087
26.662809371948242,18.298429489135742,6.888468499176233
26.573421478271484,18.636199951171875,6.888468499176233
26.46926498413086,18.96965980529785,6.706776296277992
26.35128402709961,19.29015350341797,6.561163562369988
26.214277267456055,19.603548049926758,6.427786335118614
26.06160545349121,19.90579605102539,6.427786335118614
25.885438919067383,20.204511642456055,6.311870182780567
25.693307876586914,20.49010467529297,6.227320768763863
25.495309829711914,20.75234603881836,6.143333086131635
25.278270721435547,21.003217697143555,6.065053028035816
25.039186477661133,21.242431640625,5.992999945689432
24.77739143371582,21.466819763183594,5.937220412848045
24.4934139251709,21.676847457885742,5.882158820082816
24.194398880004883,21.872814178466797,5.882158820082816
23.87907600402832,22.06151008605957,5.812990080580732
23.564071655273438,22.237714767456055,5.812990080580732
23.264041900634766,22.397388458251953,5.794854857201193
22.963581085205078,22.552900314331055,6.26726683999437
22.6562557220459,22.70888900756836,6.823584307336593
22.346763610839844,22.863277435302734,7.220872116023059
22.033998489379883,23.017393112182617,7.220872116023059
21.7183837890625,23.171693801879883,7.382227510898773
21.400964736938477,23.326297760009766,7.443703675983186
21.08148193359375,23.482030868530273,7.443703675983186
20.761993408203125,23.638456344604492,7.476919783281971
20.44873046875,23.792911529541016,7.490262051323203
20.13935661315918,23.948074340820312,7.490262051323203
19.82814598083496,24.10849952697754,7.379839591167307
19.520139694213867,24.27275276184082,7.214277329559577
19.21509552001953,24.44223403930664,7.0402243916991925
18.912212371826172,24.618343353271484,7.0402243916991925
18.615161895751953,24.800243377685547,6.877581258034511
18.32225799560547,24.989547729492188,6.924757439356695
18.03561782836914,25.1857967376709,7.260344740065239
17.750030517578125,25.39251708984375,7.260344740065239
17.461305618286133,25.61029052734375,7.152501415482593
17.179107666015625,25.83040428161621,6.984421329734857
16.900096893310547,26.052249908447266,6.828451388075074
16.62381935119629,26.27530288696289,6.828451388075074
16.356645584106445,26.497390747070312,6.693738306451001
16.093477249145508,26.725187301635742,6.782972579785481
15.842435836791992,26.956066131591797,7.201493858651644
15.604669570922852,27.190155029296875,6.998075803287164
15.362674713134766,27.442899703979492,6.998075803287164
15.118443489074707,27.713224411010742,6.845301862282068
14.88136100769043,27.987648010253906,6.699004511196341
14.654292106628418,28.26197052001953,6.570446539801911
14.438352584838867,28.536117553710938,6.466858883357419
14.232369422912598,28.812416076660156,6.466858883357419
14.041303634643555,29.08997344970703,6.3713066696197975
13.864333152770996,29.371143341064453,6.291045656234035
13.696053504943848,29.668487548828125,6.225892723165059
13.540749549865723,29.979995727539062,6.165145406123852
13.401193618774414,30.2955265045166,6.102877761334329
13.277132034301758,30.618427276611328,6.102877761334329
13.168066024780273,30.948518753051758,6.043016896064316
13.073497772216797,31.285297393798828,5.983999163127398
12.996013641357422,31.630460739135742,5.929830889489786
12.936162948608398,31.969751358032227,5.885877629155455
12.893564224243164,32.29991912841797,5.853708299444305
12.864866256713867,32.635990142822266,5.828632818243231
12.845841407775879,32.97985076904297,5.8107060968844095
12.836743354797363,33.32971954345703,5.8107060968844095
12.834379196166992,33.685420989990234,6.088827781306573
12.83859920501709,34.045555114746094,6.376488884366727
12.85295581817627,34.411521911621094,6.309779470110448
12.875892639160156,34.76665496826172,6.225184963892367
12.909575462341309,35.10191345214844,6.163628550006706
12.955400466918945,35.439208984375,6.317999635855461
13.010465621948242,35.7821044921875,6.317999635855461
13.072986602783203,36.1224365234375,6.950460768057705
13.13856029510498,36.46756362915039,7.236645323357315
13.205282211303711,36.81441879272461,7.391568584965766
13.272598266601562,37.161251068115234,7.391568584965766
13.33957290649414,37.51295852661133,7.454440522148436
13.407646179199219,37.86056900024414,7.477657845741793
13.475199699401855,38.201717376708984,7.477657845741793
13.542940139770508,38.54348373413086,7.490799741952764
13.611739158630371,38.88597869873047,7.496134312626938
13.678424835205078,39.22904586791992,7.4981042763912376
13.744086265563965,39.57236862182617,7.4981042763912376
13.8076753616333,39.91580581665039,7.499222328062497
13.867892265319824,40.26005172729492,7.499680126784515
13.926506996154785,40.602970123291016,7.499680126784515
13.981456756591797,40.9466552734375,7.499843253989477
14.033930778503418,41.29425811767578,7.499935723928488
14.084197998046875,41.643348693847656,7.499935723928488
14.130167007446289,41.991790771484375,7.499973535171711
14.174210548400879,42.339637756347656,7.4999870627206855
14.214951515197754,42.68681716918945,7.499994665617636
14.252429962158203,43.033321380615234,7.499994665617636
14.28831958770752,43.37936019897461,7.499997749939842
14.320416450500488,43.724552154541016,7.49999891669731
14.350702285766602,44.069339752197266,7.49999891669731
14.37895393371582,44.41689682006836,7.49999957558231
14.404115676879883,44.767608642578125,7.7270394321198745
14.428228378295898,45.11827087402344,7.7270394321198745
14.449249267578125,45.46833801269531,7.954079288657439
14.468297958374023,45.81786346435547,8.181119145195003
14.486063957214355,46.1666374206543,8.181119145195003
14.500770568847656,46.51523971557617,8.408159001732567
14.514739990234375,46.86292266845703,8.635198858270131
14.526646614074707,47.210182189941406,8.635198858270131
14.536675453186035,47.5588493347168,8.862238714807695
14.546586990356445,47.908817291259766,9.08927857134526
14.554205894470215,48.258872985839844,9.08927857134526
14.561502456665039,48.608428955078125,9.316318427882823
14.568133354187012,48.9576416015625,9.316318427882823
14.573126792907715,49.306583404541016,9.08927857134526
14.578801155090332,49.65522384643555,8.862238714807695
14.583160400390625,50.00368118286133,8.862238714807695
14.587379455566406,50.3519401550293,8.635198858270131
14.592188835144043,50.700286865234375,8.408159001732567
14.595767974853516,51.048728942871094,8.408159001732567
14.600552558898926,51.39712905883789,8.181119145195003
14.605148315429688,51.74556350708008,7.9540792886574385
14.609641075134277,52.094032287597656,7.9540792886574385
14.615762710571289,52.44267654418945,7.727039432119874
14.621274948120117,52.79137420654297,7.499999575582309
14.628243446350098,53.140350341796875,7.272959719044744
14.636240005493164,53.489662170410156,7.272959719044744
14.644073486328125,53.83869171142578,7.045919862507179
14.653754234313965,54.18783950805664,6.818880005969614
14.66245174407959,54.53704833984375,6.818880005969614
14.670708656311035,54.886268615722656,6.591840149432049
14.678607940673828,55.23567581176758,6.3648002928944845
14.68345832824707,55.584320068359375,6.3648002928944845
14.687237739562988,55.93327331542969,6.13776043635692
14.68768310546875,56.28156280517578,7.49999999990501
14.684195518493652,56.628726959228516,7.49999999990501
14.67786979675293,56.9818000793457,7.499999999932458
14.664743423461914,57.33943176269531,7.416949226792678
14.64533519744873,57.69309616088867,7.231770201650021
14.617610931396484,58.04399108886719,7.231770201650021
14.578807830810547,58.39231491088867,7.037517126410419
14.530013084411621,58.73542022705078,6.88518398775111
14.46719741821289,59.07429122924805,6.7364141514297815
14.390276908874512,59.407379150390625,6.7364141514297815
14.298210144042969,59.73577117919922,6.601801916499901
14.187779426574707,60.06140899658203,6.4940714783291575
14.064348220825195,60.38129425048828,6.3885712674217014
13.92860221862793,60.69546890258789,6.2847868486818514
13.780913352966309,61.00363540649414,6.205662005608101
13.621655464172363,61.302894592285156,6.205662005608101
13.44365119934082,61.592430114746094,6.103738868158641
13.246313095092773,61.86726760864258,5.986674540384022
13.017668724060059,62.115421295166016,5.885900287730489
12.799777030944824,62.48110580444336,5.80422623525079
12.470955848693848,62.6136474609375,5.759169720649625
12.142753601074219,62.73476028442383,5.751515370592092
11.813529014587402,62.845890045166016,6.32146355314567
11.488198280334473,62.9606819152832,6.160396041668366
11.171405792236328,63.094207763671875,6.160396041668366
10.869932174682617,63.262508392333984,6.060180482089092
10.589844703674316,63.476341247558594,5.907322551482314
10.341095924377441,63.733245849609375,5.7088082671661375
10.13887882232666,64.02381896972656,5.523194864774004
9.996981620788574,64.33462524414062,5.384219812461747
9.927468299865723,64.65902709960938,5.278913145998745
9.926913261413574,64.991943359375,5.233952678132195
9.979705810546875,65.32970428466797,5.227504739978887
10.070923805236816,65.67831420898438,5.234655671292053
10.182190895080566,66.02545166015625,5.245435258735251
10.298015594482422,66.35427856445312,5.261503704645616
10.41614055633545,66.681640625,5.832103704645618
10.536869049072266,67.01611328125,6.497803704645621
10.660406112670898,67.34736633300781,6.497803704645621
10.787070274353027,67.68042755126953,7.054351246090306
10.917149543762207,68.01425170898438,7.28599262510748
11.050929069519043,68.34423828125,7.411885321183177
11.188765525817871,68.67578125,7.411885321183177
11.330790519714355,69.0031967163086,7.462165890566228
11.477555274963379,69.33094787597656,7.481835483381845
11.63204574584961,69.67340087890625,7.348586753418098
11.788013458251953,70.02000427246094,7.348586753418098
11.93207836151123,70.35987091064453,7.1448526601500495
12.062889099121094,70.69705200195312,6.944923311251065
12.176708221435547,71.03166198730469,6.702399369855332
12.264836311340332,71.36373901367188,6.397713586632711
12.32766342163086,71.69385528564453,6.397713586632711
12.348465919494629,72.01988983154297,6.134394382724776
12.284468650817871,72.33024597167969,5.8793383166330395
12.103426933288574,72.59883117675781,5.682635816064726
11.819409370422363,72.79852294921875,5.5698491987398535
11.484487533569336,72.91535186767578,5.494920564267283
11.130206108093262,72.94401550292969,5.432954574758192
10.768031120300293,72.8853759765625,5.360194350742822
10.43095588684082,72.75859069824219,5.269488107130345
10.139350891113281,72.58516693115234,5.109630237996769
9.88298511505127,72.36729431152344,5.064308460585462
9.668925285339355,72.10248565673828,5.052500417403181
9.50728702545166,71.79479217529297,5.061020665689468
9.375617027282715,71.4584732055664,5.072776815541038
9.252799987792969,71.1150131225586,5.091757370659813
9.131633758544922,70.77134704589844,5.114995731504403
9.010404586791992,70.42626190185547,5.685595731504406
8.893014907836914,70.08500671386719,6.3512957315044085
8.777558326721191,69.74420928955078,6.974702086704832
8.662572860717773,69.39701080322266,6.974702086704832
8.55051326751709,69.05116271972656,7.274150753553221
8.441206932067871,68.71100616455078,7.391566717394012
8.334248542785645,68.37274169921875,7.455354099332223
8.228967666625977,68.03699493408203,7.455354099332223
8.124704360961914,67.70311737060547,7.480830215335346
8.021286010742188,67.36954498291016,7.490796409383276
7.917693614959717,67.036376953125,7.490796409383276
7.813706874847412,66.702392578125,7.496210555724928
7.708969593048096,66.36776733398438,7.498407789320625
7.60303258895874,66.03241729736328,7.4992389716549255
7.496219158172607,65.69546508789062,7.4992389716549255
7.3883185386657715,65.3578872680664,7.499686639004516
7.279466152191162,65.01964569091797,7.4998683157114385
7.1698174476623535,64.68074035644531,7.4998683157114385
7.059189319610596,64.3419189453125,7.499935388542696
6.947854042053223,64.00288391113281,7.499973434484174
6.835743427276611,63.66410446166992,7.499973434484174
6.722989559173584,63.32626724243164,7.499988850757287
6.609770774841309,62.989017486572266,7.499994490073912
6.495812892913818,62.65227508544922,7.4999977694179245
6.381315231323242,62.315921783447266,7.4999977694179245
6.266285419464111,61.979923248291016,7.499999111980171
6.150634288787842,61.644325256347656,7.591044878811609
6.0345587730407715,61.308921813964844,7.682090645643048
5.917950630187988,60.97382736206055,7.682090645643048
5.800895690917969,60.63897705078125,7.773136412474487
5.6833415031433105,60.30387878417969,7.864182179305925
5.565179347991943,59.968570709228516,7.864182179305925
5.446733474731445,59.6334342956543,7.955227946137364
5.327956199645996,59.29844665527344,8.046273712968802
5.208856105804443,58.96358108520508,8.13731947980024
5.089616775512695,58.62895584106445,8.13731947980024
4.970107555389404,58.2944221496582,8.228365246631679
4.850493431091309,57.960105895996094,8.319411013463117
4.730834007263184,57.6260871887207,8.319411013463117
4.610881805419922,57.29170608520508,8.410456780294556
4.4907097816467285,56.956851959228516,8.501502547125995
4.3704915046691895,56.62215042114258,8.501502547125995
4.250271797180176,56.28763198852539,8.592548313957433
4.130056381225586,55.953216552734375,8.683594080788872
4.009854793548584,55.61903381347656,8.77463984762031
3.889672040939331,55.2849235534668,8.77463984762031
3.7695136070251465,54.95094680786133,8.865685614451749
3.649428367614746,54.6171875,8.956731381283188
